freq                    ,Gain                    ,Phase                   
100,34.10619704,-1.804585414
104.7128548,34.14327337,-1.897815222
109.6478196,34.18410506,-1.996735372
114.8153621,34.2290924,-2.101829459
120.2264435,34.27868264,-2.21364243
125.8925412,34.33337643,-2.332791168
131.8256739,34.39373534,-2.459977329
138.0384265,34.46039069,-2.596003017
144.5439771,34.534054,-2.741790045
151.3561248,34.61552938,-2.898403765
158.4893192,34.7057284,-3.067082782
165.9586907,34.80568784,-3.249276304
173.7800829,34.91659143,-3.446691493
181.9700859,35.03979618,-3.661354088
190.5460718,35.17686499,-3.895686822
199.5262315,35.32960708,-4.152612003
208.9296131,35.5001288,-4.435687398
218.7761624,35.6908981,-4.749288664
229.0867653,35.90482721,-5.098858025
239.8832919,36.14538023,-5.491248885
251.1886432,36.41671481,-5.935212328
263.0267992,36.72387178,-6.442098309
275.4228703,37.07303297,-7.026890069
288.4031503,37.47187834,-7.709771012
301.995172,37.93009007,-8.518570705
316.227766,38.46007929,-9.492717983
331.1311215,39.078056,-10.68989181
346.7368505,39.80563536,-12.1977495
363.0780548,40.67227887,-14.15578441
380.1893963,41.71896041,-16.79880447
398.1071706,43.00315437,-20.55020776
416.8693835,44.60232022,-26.23904305
436.5158322,46.594064,-35.63495527
457.0881896,48.88032307,-52.58882652
478.6300923,50.39345535,-82.18858513
501.1872336,49.13553049,-116.071054
524.8074602,46.1483876,-138.1299194
549.5408739,43.18922796,-150.1596491
575.4399373,40.62668991,-157.1499788
602.5595861,38.41641649,-161.6015598
630.9573445,36.47490543,-164.6552588
660.693448,34.73602545,-166.8716846
691.8309709,33.15230539,-168.5512841
724.4359601,31.68982416,-169.8675857
758.577575,30.32392476,-170.927155
794.3282347,29.03629014,-171.798798
831.7637711,27.8130184,-172.5288146
870.96359,26.64334934,-173.1494519
912.0108394,25.51880716,-173.6838326
954.992586,24.43261119,-174.1489534
1000,23.37926221,-174.5575785
1047.128548,22.35424612,-174.9194738
1096.478196,21.35381779,-175.2422345
1148.153621,20.3748405,-175.5318535
1202.264435,19.41466501,-175.793121
1258.925412,18.47103697,-176.0299101
1318.256739,17.54202522,-176.2453849
1380.384265,16.62596553,-176.4421549
1445.439771,15.72141599,-176.6223906
1513.561248,14.8271213,-176.7879113
1584.893192,13.94198386,-176.9402529
1659.586907,13.06504019,-177.0807204
1737.800829,12.1954416,-177.2104294
1819.700859,11.33243807,-177.3303386
1905.460718,10.47536493,-177.441276
1995.262315,9.623631568,-177.5439602
2089.296131,8.776711949,-177.6390172
2187.761624,7.934136564,-177.7269944
2290.867653,7.095485534,-177.808372
2398.832919,6.260382705,-177.8835728
2511.886432,5.428490557,-177.9529693
2630.267992,4.599505798,-178.016891
2754.228703,3.773155537,-178.0756296
2884.031503,2.949193944,-178.1294434
3019.95172,2.127399326,-178.1785613
3162.27766,1.307571564,-178.2231862
3311.311215,0.489529853,-178.2634979
3467.368505,-0.326889292,-178.299655
3630.780548,-1.141833799,-178.3317974
3801.893963,-1.95543761,-178.3600478
3981.071706,-2.767822068,-178.3845132
4168.693835,-3.579097162,-178.4052862
4365.158322,-4.389362633,-178.4224461
4570.881896,-5.198708961,-178.4360598
4786.300923,-6.007218256,-178.4461827
5011.872336,-6.81496505,-178.4528591
5248.074602,-7.622017011,-178.456123
5495.408739,-8.428435586,-178.4559987
5754.399373,-9.234276574,-178.4525008
6025.595861,-10.03959065,-178.4456349
6309.573445,-10.84442383,-178.4353978
6606.93448,-11.6488179,-178.4217777
6918.309709,-12.45281078,-178.4047542
7244.359601,-13.25643689,-178.3842986
7585.77575,-14.05972744,-178.3603743
7943.282347,-14.86271073,-178.332936
8317.637711,-15.66541237,-178.3019306
8709.6359,-16.46785556,-178.2672969
9120.108394,-17.27006124,-178.2289651
9549.92586,-18.07204831,-178.1868575
10000,-18.87383378,-178.1408878
10471.28548,-19.67543293,-178.0909613
10964.78196,-20.47685944,-178.0369746
11481.53621,-21.2781255,-177.9788154
12022.64435,-22.07924194,-177.9163625
12589.25412,-22.88021831,-177.8494855
13182.56739,-23.68106293,-177.7780443
13803.84265,-24.48178305,-177.7018894
14454.39771,-25.28238481,-177.620861
15135.61248,-26.08287337,-177.5347892
15848.93192,-26.88325292,-177.4434932
16595.86907,-27.68352673,-177.3467815
17378.00829,-28.48369717,-177.244451
18197.00859,-29.28370172,-177.3069118
19054.60718,-30.08366289,-177.2007316
19952.62315,-30.88352201,-177.088631
20892.96131,-31.68327797,-176.9703756
21877.61624,-32.48292879,-176.8457179
22908.67653,-33.2824716,-176.7143977
23988.32919,-34.08190265,-176.5761411
25118.86432,-34.88121726,-176.4306599
26302.67992,-35.6804098,-176.2776514
27542.28703,-36.47942245,-176.2459341
28840.31503,-37.27834499,-176.0829914
30199.5172,-38.0771219,-175.9118078
31622.7766,-38.87574321,-175.7320305
33113.11215,-39.67419772,-175.5432897
34673.68505,-40.47247293,-175.3451985
36307.80548,-41.27051392,-175.2394993
38018.93963,-42.06838353,-175.0262913
39810.71706,-42.86602739,-174.8026896
41686.93835,-43.66342703,-174.5682429
43651.58322,-44.46056225,-174.3224804
45708.81896,-45.25737599,-174.150647
47863.00923,-46.05391159,-173.8848027
50118.72336,-46.85011157,-173.606298
52480.74602,-47.64594894,-173.3145875
54954.08739,-48.44136487,-173.0827351
57543.99373,-49.23638835,-172.7663644
60255.95861,-50.03096237,-172.4351867
63095.73445,-50.82503334,-172.1519829
66069.3448,-51.6186277,-171.7922864
69183.09709,-52.41170795,-171.4159853
72443.59601,-53.20425619,-171.0790206
75857.7575,-53.99636171,-170.6701123
79432.82347,-54.78813111,-170.2426126
83176.37711,-55.57986541,-169.8477866
87096.359,-56.3724614,-169.3832701
91201.08394,-57.16862698,-168.9444359
95499.2586,-57.98283215,-168.4375791
100000,-58.70906905,-167.7813949
